significant wave height (m);wind speed (m/s)
2.2519942512569107;21.961467299200024
2.36582355295648;22.2145713568952
2.4828371466788624;22.452647413714583
2.6029507592480865;22.67632978192052
2.7260749321480158;22.88631955487085
2.8521155064352905;23.083365645200733
2.980974086805104;23.26824736051957
3.1125484826146583;23.44175875632569
3.24673312442339;23.60469490281596
3.3834194552588333;23.757840113407312
3.522496296364653;23.901958109249403
3.663850187638347;24.037784036226217
3.807365703327852;24.16601820849779
3.9529257438376364;24.287321423936348
4.1004118047053995;24.402311680109595
4.249704223959541;24.51156211261435
4.400682409164657;24.61559997873926
4.553225045515951;24.71490651645155
4.707210286361685;24.80991751995192
4.862515927522755;24.901024487111776
5.019019566746352;24.988576209401135
5.1765987495820305;25.072880691100032
5.3351311029076935;25.154207300217355
5.494494457264042;25.232789068632005
5.654566959082019;25.30882507287673
5.815227173811162;25.382482839662014
5.9763541808796665;25.453900731407213
6.137827661340786;25.523190276914843
6.299527978986449;25.590438420732788
6.461336255637799;25.65570967189196
6.623134441255486;25.71904813870615
6.784805379448873;25.780479441187094
6.9462328689047;25.84001249662753
7.1073017212007334;25.897641177058993
7.2678978154195315;25.953345839739885
7.427908149931363;26.00709473373866
7.587220891672671;26.058845287034643
7.745725423208335;26.10854527956513
7.903312387831083;26.1561339082979
8.059873732919716;26.20154275080256
8.215302751749691;26.244696633981576
8.369494123923763;26.285514414646197
8.522343954568408;26.323909678529
8.673749812420144;26.359791364130004
8.82361076690839;26.39306431754688
8.971827424326056;26.423629784141934
9.118301963162478;26.451385842574282
9.262938168663574;26.47622778639373
9.40564146667016;26.49804845805054
9.546318956777531;26.516738539845683
9.684879444848898;26.532186806020114
9.821233474910384;26.544280339879997
9.95529336044398;26.55290471956113
10.086973215094746;26.55794417577518
10.216188982799721;26.55928172463313
10.342858467342236;26.556799278420595
10.466901361331933;26.550377737003707
10.588239274607892;26.539897062371924
10.70679576206004;26.52523633867575
10.822496350861888;26.506273819993204
10.935268567096083;26.482886967947913
11.045041961780296;26.454952481250615
11.151748136256991;26.422346319140125
11.255320766952009;26.384943720707756
11.355695629482609;26.342619222057426
11.452810622087753;26.2952466732581
11.546605788390275;26.24269925711585
11.637023339447255;26.184849511796354
11.724007675088444;26.1215693594472
11.80750540453462;26.052730143059083
11.887465366249847;25.978202673883033
11.963838647053484;25.897857291926794
12.03657860044025;25.811563942128686
12.105640864113239;25.719192269029747
12.170983376697457;25.620611732907513
12.232566393676773;25.515691750599775
12.290352502428513;25.404301864270334
12.344306636470028;25.28631194180552
12.394396088821026;25.161592412505467
12.440590524496585;25.030014542019426
12.482861992129033;24.891450750607696
12.521184934676247;24.745774978884555
12.5555361992543;24.592863105346467
12.58589504605595;24.432593419913296
12.612243156343304;24.264847157660725
12.63456463950337;24.089509096745964
12.652846039211736;23.90646822429504
12.667076338649565;23.715618473479445
12.677246964726482;23.516859534420387
12.683351791434253;23.31009774096918
12.68538714223213;23.095247034195495
12.683351791434253;22.872230002296785
12.677246964726482;22.640978995401085
12.667076338649565;22.40143731177446
12.652846039211736;22.15356045044354
12.63456463950337;21.897317422860507
12.612243156343304;21.632692114179704
12.58589504605595;21.359684682444303
12.5555361992543;21.07831298131552
12.521184934676247;20.788613989777726
12.482861992129033;20.49064522998266
12.440590524496585;20.18448615221491
12.394396088821026;19.870239464285998
12.344306636470028;19.548032381365136
12.290352502428513;19.218017771532963
12.232566393676773;18.880375172138727
12.170983376697457;18.535311652730083
12.105640864113239;18.1830625016212
12.03657860044025;17.82389171524231
11.963838647053484;17.45809227236578
11.887465366249847;17.085986178503504
11.80750540453462;16.70792427003977
11.724007675088444;16.32428577180449
11.637023339447255;15.935477606420735
11.546605788390275;15.541933458252837
11.452810622087753;15.144112599200447
11.355695629482609;14.74249848746908
11.255320766952009;14.337597154002454
11.151748136256991;13.929935394046678
11.045041961780296;13.520058783434902
10.935268567096083;13.10852954063428
10.822496350861888;12.695924256216529
10.70679576206004;12.28283151149339
10.588239274607892;11.86984940751887
10.466901361331933;11.457583024651104
10.342858467342236;11.046641831616544
10.216188982799721;10.637637061467814
10.086973215094746;10.231179070290379
9.95529336044398;9.827874692968749
9.821233474910384;9.428324608917872
9.684879444849063;9.033120729481183
9.546318956777531;8.642843617736514
9.40564146667016;8.258059950773019
9.262938168663574;7.879320034088717
9.118301963162478;7.507155377637514
8.971827424326056;7.142076343169523
8.82361076690839;6.7845698728435755
8.673749812420144;6.435097309602652
8.522343954568408;6.094092320438382
8.369494123923763;5.7619589343892885
8.215302751749691;5.4390697078561505
8.059873732919716;5.1257640305374705
7.903312387831083;4.822346585924135
7.745725423208314;4.529085980802715
7.587220891672671;4.246213558549583
7.427908149931363;3.9739224111015297
7.2678978154195315;3.712366604325449
7.1073017212007334;3.4616606310285856
6.9462328689047;3.221879105022254
6.784805379448873;2.993056708436048
6.623134441255486;2.7751884028540306
6.461336255637799;2.568229912789658
6.299527978986443;2.372098487523406
6.13782766134079;2.1866739444014094
5.976354180879662;2.0117999933513864
5.815227173811162;1.847285838648339
5.654566959082019;1.6929080499068982
5.494494457264042;1.5484126899607564
5.335131102907696;1.413517682799429
5.1765987495820305;1.287915400176925
5.019019566746354;1.171275441010026
4.862515927522755;1.0632475733841997
4.707210286361687;0.9634648050333997
4.553225045515948;0.8715465447101703
4.400682409164657;0.7871018140696867
4.249704223959544;0.7097324677000205
4.1004118047053995;0.6390363778705811
3.952925743837638;0.5746105405435782
3.807365703327851;0.5160540602695494
3.663850187638349;0.4629709737956411
3.522496296364652;0.41497287553612416
3.3834194552588346;0.37168131242071856
3.2467331244233884;0.3327299209285339
3.1125484826146583;0.2977662851681798
2.9809740868051064;0.26645350146976055
2.8521155064352905;0.23847144187340555
2.726074932148017;0.21351771587267196
2.6029507592480865;0.19130833653647877
2.4828371466788632;0.171578103436976
2.3658235529564795;0.15408072042523582
2.2519942512569116;0.13858867103329328
2.1414278267076448;0.12489287800049081
2.0341966598875616;0.11280217604186756
1.930366401571366;0.10214262847305557
1.82999544484715;0.09275671871411713
1.7331344018567032;0.0845024470998593
1.6398255935185426;0.077252361954708
1.5501025616447148;0.07089255170517138
1.4639896137966604;0.06532162207891977
1.3815014119795728;0.06044967935807752
1.302642616780078;0.056197337389988125
1.227407598741107;0.05249476276933815
1.1557802285759073;0.049280769425099194
1.0877337571966865;0.04650197088008642
1.0232307954333268;0.044111995776112224
0.9622234017274114;0.04207076992090572
0.9046532840154179;0.040343866135249644
0.8504521195021747;0.03890192155923496
0.7995419931427148;0.03772012079713159
0.751835952499322;0.03677774231097564
0.7072386733499009;0.036057764776222266
0.6656472271423491;0.035546529648209625
0.6269519382773482;0.03523345591559628
0.5910373164178043;0.03511080289898443
0.5577830467145329;0.03517347695657292
0.5270650191276999;0.03541887805576078
0.49875637700211484;0.03584678233680565
0.47272856477084757;0.036459257012639516
0.44885235512078053;0.03726060420139625
0.42699883711680153;0.038257330560394036
0.40704034856936855;0.03945813986806998
0.3888513382317895;0.040873945969211053
0.3723091460940787;0.042517903743778215
0.35729469295310146;0.04440545596543524
0.34369307343589167;0.04655439406798219
0.3313940495954789;0.04898493092348317
0.32029244496424236;0.051719783745397804
0.31028844143956663;0.05478426515820624
0.30128778351777397;0.05820638032168742
0.2932018961394096;0.06201692776829027
0.28594792374274114;0.06624960131603243
0.2794486990465948;0.07094109007145047
0.2736326506215866;0.07613117315501687
0.26843365849806283;0.08186280538526539
0.2637908669472973;0.08818218976937271
0.25964846321271895;0.09513883228998714
0.2559554304147692;0.10278557417433117
0.25266528215937745;0.11117859660624799
0.24973578559491572;0.12037739271962876
0.24712867882914086;0.13044470171723851
0.24480938777270672;0.14144640011664422
0.24274674664909285;0.15345134545736708
0.24091272562514507;0.16653116833041645
0.23928216828843554;0.18076000932810726
0.23783254103821116;0.19621419846704524
0.23654369587185714;0.212971875809947
0.23539764754060513;0.23111255339126682
0.2343783656155705;0.2507166201132678
0.23347158164465087;0.27186479298519883
0.23266461128724605;0.2946375198761713
0.23194619108098127;0.3191143407763134
0.2313063293158873;0.3453732163332771
0.23073617035988817;0.3734898340666673
0.2302278716881671;0.40353690407251386
0.22977449281156628;0.4355834571268823
0.22936989526965115;0.46969415880453824
0.2290086528470354;0.5059286534827788
0.22868597118223685;0.5443409518613854
0.22839761596256172;0.5849788748822163
0.22813984893273742;0.6278835656908999
0.22790937098625696;0.6730890795922481
0.22770327165419527;0.7206220598824188
0.2275189843546169;0.7705015050896458
0.22735424681503813;0.822738630633408
0.2272070661295034;0.8773368253401351
0.22707568795976787;0.9342917007525376
0.22695856943617634;0.993591228851909
0.22685435535763088;1.0552159617746297
0.22676185733126444;1.1191393254207183
0.22668003553092575;1.1853279775732621
0.22660798278929342;1.2537422202965443
0.22654491077141026;1.3243364559560133
0.2264901380077627;1.3970596761805865
0.22644307959287105;1.4718559734253687
0.22640323838088589;1.5486650654352676
0.22637019753309837;1.6274228237947974
0.22634361429379168;1.7080617988109372
0.22632321489070006;1.7905117341512966
0.2263087904747351;1.8747000658904147
0.22630019403080975;1.9605524018528506
0.22629733820776515;2.0479929783417328
0.22630019403080975;2.1369450924743294
0.2263087904747351;2.227331509390953
0.22632321489070006;2.319074844547304
0.22634361429379168;2.4120979221389454
0.22637019753309837;2.5063241114415424
0.22640323838088589;2.6016776434894733
0.22644307959287105;2.698083911068737
0.2264901380077627;2.7954697554816494
0.22654491077141026;2.893763743965609
0.22660798278929342;2.992896442031555
0.22668003553092575;3.0928006853457677
0.22676185733126444;3.193411856125623
0.22685435535763085;3.2946681693701088
0.22695856943617634;3.3965109746110853
0.22707568795976787;3.4988850792623287
0.2272070661295034;3.601739100068159
0.22735424681503813;3.7050258496176744
0.2275189843546169;3.808702765397183
0.22770327165419527;3.9127323894007735
0.22790937098625696;4.0170829069025045
0.2281398489327374;4.121728753602042
0.22839761596256172;4.226651300972258
0.22868597118223685;4.33183963023651
0.2290086528470354;4.437291405951346
0.22936989526965118;4.543013860619832
0.22977449281156626;4.649024902051911
0.23022787168816708;4.75535435524442
0.23073617035988817;4.8620453502779055
0.2313063293158873;4.969155867003671
0.23194619108098125;5.076760445979486
0.23266461128724603;5.184952073039176
0.23347158164465084;5.293844241854897
0.2343783656155705;5.403573194652507
0.23539764754060516;5.51430033562832
0.2365436958718571;5.626214804336128
0.23783254103821114;5.739536187111509
0.23928216828843552;5.85451733323989
0.2409127256251451;5.971447228867014
0.24274674664909285;6.090653865488157
0.24480938777270667;6.212507021259967
0.2471286788291408;6.337420852562923
0.24973578559491563;6.465856170661777
0.25266528215937745;6.598322254730343
0.2559554304147692;6.7353780290683805
0.25964846321271884;6.877632410593018
0.2637908669472972;7.025743614609572
0.2684336584980629;7.180417194824918
0.27363265062158665;7.342402590201327
0.27944869904659475;7.512487959321721
0.285947923742741;7.691493105046596
0.2932018961394095;7.88026033052267
0.30128778351777397;8.079643123333375
0.3102884414395667;8.290492637867942
0.32029244496424203;8.513642035436927
0.3313940495954787;8.749888844294292
0.34369307343589167;8.99997561298549
0.35729469295310157;9.264569244491003
0.3723091460940785;9.544239508820263
0.3888513382317892;9.839437331152453
0.40704034856936816;10.150473534822263
0.42699883711680164;10.47749877785688
0.4488523551207806;10.820485453953474
0.4727285647708469;11.179212330817498
0.49875637700211417;11.553252668739331
0.5270650191277001;11.941966499422934
0.5577830467145332;12.34449764944928
0.5910373164178037;12.759775965086755
0.6269519382773473;13.186525037404172
0.6656472271423485;13.62327554186932
0.7072386733499011;14.068384099872784
0.7518359524993228;14.520057348363567
0.7995419931427139;14.976380677655495
0.8504521195021738;15.435350878887766
0.9046532840154181;15.89491174528511
0.9622234017274117;16.35299150988113
1.0232307954333255;16.80754088994178
1.0877337571966852;17.25657045653961
1.1557802285759062;17.698186062709304
1.227407598741107;18.130621147783962
1.3026426167800784;18.552264884397534
1.3815014119795712;18.961685338666932
1.4639896137966586;19.357647058978184
1.550102561644715;19.73912277666138
1.6398255935185435;20.105299173837434
1.733134401856701;20.45557693123109
1.829995444847148;20.7895654957071
1.9303664015713613;21.107073191096937
2.034196659887562;21.408093429009803
2.1414278267076448;21.69278785585355
